-2.955394891778863453e+01
8.825703810779572223e+00
3.975546252789071389e+01
5.806659481561192138e+01
6.218894606420711568e+01
5.409356817183537203e+01
3.810157594997605202e+01
1.920874439086906449e+01
1.598426711033653191e+00
-1.222828886200171894e+01
-2.160569456233013952e+01
-2.730579637387295477e+01
-3.087715070580370025e+01
-3.398815718360916094e+01
-3.794726104758724716e+01
-4.346839459823391394e+01
-5.066791597265382308e+01
-5.922385577515699850e+01
-6.860268295722865162e+01
-7.826640171949881619e+01
-8.780562164630322286e+01
-9.698419239892689347e+01
-1.057133372761968957e+02
-1.139916638598807310e+02
-1.218491720398131548e+02
-1.293197948417206362e+02
-1.364460451742633609e+02
-1.433003218199980324e+02
-1.499968436065581727e+02
-1.566710545102974095e+02
-1.634223923208209612e+02
-1.702454353176138397e+02
-1.769937173183665209e+02
-1.834085152703636936e+02
-1.892058469035023620e+02
-1.941812078298766835e+02
-1.982870746751573279e+02
-2.016542190039761806e+02
-2.045468789380154533e+02
-2.072628317340175101e+02
-2.100150654140197730e+02
-2.128489582567381149e+02
-2.156380959418540613e+02
-2.181616017762741819e+02
-2.202217637146258085e+02
-2.217437685724561049e+02
-2.228152094609183393e+02
-2.236546102487381233e+02
-2.245306958717670511e+02
-2.256775874777835611e+02
-2.272491767919266010e+02
-2.293192542541345347e+02
-2.318854414588748512e+02
-2.348199241061183784e+02
-2.377482358940432334e+02
-2.398987897157872737e+02
-2.400050499376239657e+02
-2.363392599321398109e+02
-2.269153738749409115e+02
-2.098333729499982212e+02
-1.836753735961161738e+02
-1.478409182600516090e+02
-1.027362225453824465e+02
-4.978403504400077395e+01
8.737646725926367708e+00
6.999642695552128657e+01
1.309932548495428932e+02
1.889597028085039483e+02
2.416789905632929276e+02
2.876706543918779744e+02
3.262257724438209721e+02
3.573194892410265879e+02
3.814468753732364803e+02
3.994298749173145779e+02
4.122330616827825907e+02
4.208120102228627957e+02
4.260075891748333561e+02
4.284899859174385028e+02
4.287429115125756880e+02
4.270686940626274009e+02
4.235998149424921166e+02
4.183174526578471841e+02
4.110880777291084769e+02
4.017267466542914462e+02
3.900806540299248582e+02
3.761064627409492687e+02
3.599072673024186315e+02
3.417128608039150777e+02
3.218199018037539645e+02
3.005301815561739431e+02
2.781206434939470000e+02
2.548574848805611737e+02
2.310464865922842534e+02
2.070975875896130276e+02
1.835681503725871835e+02
1.611425884537865159e+02
1.405261944653570367e+02
1.222801880722893486e+02
1.066686322251757275e+02
9.358814381674608285e+01
8.260827242479018651e+01
7.309643378646248379e+01
6.436965869915782434e+01
5.582045727374206479e+01
4.699528166476571300e+01
3.763418360398461715e+01
2.768696682436950951e+01
1.730473304026549997e+01
6.789404952118566428e+00
-3.506713044944454793e+00
-1.330565796529999290e+01
-2.250159762940945996e+01
-3.118932468780754164e+01
-3.961682460014181117e+01
-4.809129123622345503e+01
-5.688364087120335455e+01
-6.616523932868130942e+01
-7.598285240418057640e+01
-8.625864644360891020e+01
-9.680605486748353883e+01
-1.073644562789500583e+02
-1.176529442595036414e+02
-1.274284611508996647e+02
-1.365270476468549532e+02
-1.448771893893636218e+02
-1.524883643620590590e+02
-1.594218650674597200e+02
-1.657498123333759565e+02
-1.715149932411352438e+02
-1.767126734684698022e+02
-1.813083668417077945e+02
-1.852836525308598823e+02
-1.886834400831799883e+02
-1.916347560589610453e+02
-1.943202425093729460e+02
-1.969148157433637891e+02
-1.995204659322543819e+02
-2.021437114761744454e+02
-2.047386151693876570e+02
-2.072944842300962307e+02
-2.099141700191656525e+02
-2.128318271468068303e+02
-2.163500421766266584e+02
-2.207083530749299314e+02
-2.259134582742018722e+02
-2.315700886066350392e+02
-2.367582078672757291e+02
-2.400050499376239657e+02
-2.393904140076466263e+02
-2.327944711308750527e+02
-2.182530174844503961e+02
-1.943371221021375561e+02
-1.604550152394034228e+02
-1.169969832576213093e+02
-6.529939244159902501e+01
-7.457930599540162575e+00
5.395264190756373779e+01
1.161902158125976285e+02
1.766310697156017113e+02
2.329889405325268967e+02
2.834584577401614069e+02
3.268000762762047771e+02
3.623820117611402338e+02
3.901734941132896211e+02
4.106710249828996666e+02
4.247516534094914959e+02
4.334776761727268877e+02
4.379045020674600437e+02
4.389473840387905739e+02
4.373362514151814366e+02
4.336425676017712476e+02
4.283262348291174249e+02
4.217516475759714467e+02
4.141576041005492925e+02
4.056019273450075389e+02
3.959139396513644442e+02
3.846864359693574897e+02
3.713376815476199226e+02
3.552607577950303721e+02
3.360363699093029481e+02
3.136350664272243876e+02
2.885197443894637672e+02
2.616002420950638339e+02
2.340611891787519880e+02
2.071328812513612831e+02
1.818786255964368763e+02
1.590455753459399375e+02
1.389967320981661487e+02
1.217221011186992712e+02
1.069146214510898290e+02
9.408774279421017184e+01
8.270594852672387276e+01
7.229686969703149657e+01
6.251641291460734351e+01
5.315342277653208924e+01
4.408633050933339348e+01
3.522410743440243408e+01
2.646388838389073328e+01
1.768272411714977821e+01
8.762590895722368600e+00
-3.684827094804106196e-01
-9.705246937068665147e+00
-1.916504642137179104e+01
-2.862405485151762718e+01
-3.798052793959976725e+01
-4.722326743600913801e+01
-5.647019233351056755e+01
-6.594124540997660233e+01
-7.585996729983224895e+01
-8.632624654539274900e+01
-9.723026213193169554e+01
-1.082606132479150176e+02
-1.190088092375861493e+02
-1.291194568049447469e+02
-1.384116562175865965e+02
-1.469150040531583841e+02
-1.548099454875867309e+02
-1.623079351159475436e+02
-1.695294768291590515e+02
-1.764339544855870372e+02
-1.828302632453835770e+02
-1.884591122350743717e+02
-1.931034825644422028e+02
-1.966764063440277539e+02
-1.992576288461434046e+02
-2.010782844895265384e+02
-2.024667652041158590e+02
-2.037753033294814600e+02
-2.053124292645509570e+02
-2.073029730704299425e+02
-2.098798016941574645e+02
-2.130942099435779369e+02
-2.169298101078696277e+02
-2.213111213250849971e+02
-2.260953414752347896e+02
-2.310251280032658485e+02
-2.356245345631462271e+02
-2.390557211848709471e+02
-2.400050499376239657e+02
-2.366922048791225279e+02
-2.270634779697288650e+02
-2.091524446601362683e+02
-1.815184298931188493e+02
-1.436419211888688210e+02
-9.617060304244152746e+01
-4.094781520953281273e+01
1.919934665350634972e+01
8.088640125977052264e+01
1.407373855726525278e+02
1.959732512643754490e+02
2.448813531953759366e+02
2.870303304400222260e+02
3.231395096842040857e+02
3.545941149697215451e+02
3.826994933732851223e+02
4.078616464614995039e+02
4.289448969385446162e+02
4.430758335249547599e+02
4.461084423890092694e+02
4.337956700297315251e+02
4.034248176584654857e+02
3.553650258314740995e+02
2.938242116940585902e+02
2.262936123944177780e+02
1.616995138180184313e+02
1.079374092874793689e+02
6.980057971016768192e+01
4.808453029714708293e+01
4.003911883351139522e+01
4.077172692024724654e+01
4.495145543371178576e+01
4.823055717529851449e+01
4.804367241822728829e+01
4.372077022265226276e+01
3.606296479070377359e+01
2.664257601754925275e+01
1.709651483388805815e+01
8.609107249567408360e+00
1.671735477043998941e+00
-3.891697560756483654e+00
-8.707668112881528089e+00
-1.354865618272271277e+01
-1.905210112227408104e+01
-2.555041816279440781e+01
-3.304414178613676967e+01
-4.128639424749464126e+01
-4.991193580076956238e+01
-5.855134771210460798e+01
-6.690359994993482928e+01
-7.477073323644387415e+01
-8.206797585292554231e+01
-8.881483662847786320e+01
-9.510716360857387031e+01
-1.010757985283359943e+02
-1.068441134159343022e+02
-1.124969855234432856e+02
-1.180717833229994227e+02
-1.235781112906296784e+02
-1.290410473702829393e+02
-1.345439196100816162e+02
-1.402363937429693976e+02
-1.462874256051283623e+02
-1.527987450836977814e+02
-1.597293424804933579e+02
-1.668843248254810305e+02
-1.739818671947211044e+02
-1.807569503042963959e+02
-1.870366311663834722e+02
-1.927484768788854979e+02
-1.978741295558914146e+02
-2.023915525656782108e+02
-2.062463590815196426e+02
-2.093669383224339526e+02
-2.117096515061790285e+02
-2.133053978655910612e+02
-2.142827631718122916e+02
-2.148564173308919294e+02
-2.152818577160853124e+02
-2.157903192513059878e+02
-2.165317878396728020e+02
-2.175559268317790327e+02
-2.188387432354872146e+02
-2.203320496423332315e+02
-2.220016757071167888e+02
-2.238356584049475657e+02
-2.258269750629436032e+02
-2.279507856689124878e+02
-2.301594013073023177e+02
-2.324030127460471817e+02
-2.346491412910575036e+02
-2.368468641118211906e+02
-2.388031467520128501e+02
-2.400050499376239657e+02
-2.394801291963293863e+02
-2.357927217423469699e+02
-2.272260528092769789e+02
-2.121266439852306007e+02
-1.893180878899638913e+02
-1.584577343168721484e+02
-1.202282050183151370e+02
-7.631074807390984915e+01
-2.914994240918104751e+01
1.842808072774023742e+01
6.364734115519314628e+01
1.041625077293604136e+02
1.383172615370619098e+02
1.652589125613850740e+02
1.849284415652728910e+02
1.979600899376629286e+02
2.055172466075885893e+02
2.090791792363571631e+02
2.101940156017846277e+02
2.102321256341708420e+02
2.101951033884148217e+02
2.106325461283207972e+02
2.116822917349712441e+02
2.132031070355567124e+02
2.149434924331757202e+02
2.166904630164608534e+02
2.183526383582131984e+02
2.199519417341510916e+02
2.215368985006360276e+02
2.230712205268862078e+02
2.243577016173132392e+02
2.250242409975625719e+02
2.245627968493512014e+02
2.224019593439105904e+02
2.179991331215797743e+02
2.109371747535630561e+02
2.010038867304726011e+02
1.882374714204284203e+02
1.729382540496141019e+02
1.556573948670195193e+02
1.371639148589556783e+02
1.183756865039660227e+02
1.002435006045107571e+02
8.360535539212345668e+01
6.905598685875993681e+01
5.687608918342471043e+01
4.703706444912118911e+01
3.926575693345766638e+01
3.313850686405389467e+01
2.817445040573233683e+01
2.390707599527164007e+01
1.992486385721198872e+01
1.588067401050233229e+01
1.147683382741567470e+01
6.446779671874161011e+00
5.668921172412879628e-01
-6.283055662924226681e+00
-1.404018700661836050e+01
-2.242590934661332369e+01
-3.100725410524704273e+01
-3.933498084483056800e+01
-4.708883414164397152e+01
-5.415579629886032365e+01
-6.060479830497060050e+01
-6.657910903577860040e+01
-7.217739685483579137e+01
-7.740217036670881612e+01
-8.220843510092484507e+01
-8.661614442154709081e+01
-9.080354959276954219e+01
-9.510530064689392304e+01
-9.989850441025527061e+01
-1.054344196963226352e+02
-1.117110072315625189e+02
-1.184582965963256953e+02
-1.252441165228690068e+02
-1.316439744163874934e+02
-1.373920532818127640e+02
-1.424519787313865038e+02
-1.469960819492074791e+02
-1.513227564574455357e+02
-1.557501821338567822e+02
-1.605133971578326566e+02
-1.656866093321208098e+02
-1.711550149785117014e+02
-1.766506930300988074e+02
-1.818427462908766756e+02
-1.864507515075654283e+02
-1.903419716587327457e+02
-1.935734878287211700e+02
-1.963550874913663904e+02
-1.989438420817180031e+02
-2.015207191415057650e+02
-2.041132361768554233e+02
-2.066037228316155847e+02
-2.088145908493264926e+02
-2.106196870285325531e+02
-2.120213709788397409e+02
-2.131594629106922412e+02
-2.142583586035270002e+02
-2.155467977878113857e+02
-2.171886557010903402e+02
-2.192487573752779326e+02
-2.217008290515073554e+02
-2.244691847381707532e+02
-2.274761055994385401e+02
-2.306538861407537127e+02
-2.338939501482728929e+02
-2.369409007843416077e+02
-2.392708855612345644e+02
-2.400050499376239657e+02
-2.379029458003629998e+02
-2.314656991635139605e+02
-2.191572465595046424e+02
-1.997200367749628356e+02
-1.725200090900783891e+02
-1.378233525332554166e+02
-9.690954097632436515e+01
-5.196639640047794728e+01
-5.776542964767938493e+00
3.873198028576927499e+01
7.895609987652073869e+01
1.129913556351359318e+02
1.398320120589970372e+02
1.593845646729170369e+02
1.723303068726240781e+02
1.798876228074969674e+02
1.835244259747743740e+02
1.846781059230707740e+02
1.845451405644382135e+02
1.839809775518193362e+02
1.835044779730614835e+02
1.833627015122167165e+02
1.836087090907443837e+02
1.841696975473775524e+02
1.849047371745626549e+02
1.856535313738481250e+02
1.862693312253674947e+02
1.866272182225039842e+02
1.866075482111920962e+02
1.860666809129999422e+02
1.848151233760056584e+02
1.826179978294240698e+02
1.792127199717849919e+02
1.743234005368997543e+02
1.676618973158614665e+02
1.589317146550164068e+02
1.478651819907844640e+02
1.343148605047433364e+02
1.183906539301498100e+02
1.005931306913732044e+02
8.186431901186149673e+01
6.349113053285472574e+01
4.685942041156825866e+01
3.313506586722709102e+01
2.299270211708521927e+01
1.649330033288376995e+01
1.314267843652136136e+01
1.208930941761949640e+01
1.237828234946793060e+01
1.317585097070036682e+01
1.390401527878536392e+01
1.426462584232783115e+01
1.417433182855454987e+01
1.365762993281690107e+01
1.274692733548606149e+01
1.142466512535780687e+01
9.621701848918281286e+00
7.259800615483275266e+00
4.306148471727145655e+00
8.124047026453012910e-01
-3.066734585782048939e+00
-7.069103026380358479e+00
-1.083991147998182214e+01
-1.398429929701825714e+01
-1.616462248688803172e+01
-1.721336997642069377e+01
-1.720315797113307710e+01
-1.642725657463487465e+01
-1.529544650020105401e+01
-1.419894531636771617e+01
-1.340788634623287123e+01
-1.303764776490240429e+01
-1.308369088474080755e+01
-1.350060348153808576e+01
-1.429317764475938723e+01
-1.558511374383673775e+01
-1.762744472455375799e+01
-2.071619769364287578e+01
-2.502734115725590058e+01
-3.044114153230092512e+01
-3.647019333600771773e+01
