-9.771641845888572675e+01
-1.275657742925165223e+02
-1.548218789359928564e+02
-1.775105326168303179e+02
-1.947061178421153329e+02
-2.065517414720366105e+02
-2.140093807081568968e+02
-2.185112079174603537e+02
-2.216282084300935367e+02
-2.247823171313534374e+02
-2.289907759404155456e+02
-2.346651364338166843e+02
-2.415402316642805545e+02
-2.488037028661310046e+02
-2.554088632498131801e+02
-2.604482655795143273e+02
-2.634351851069749273e+02
-2.644045363666881485e+02
-2.638389961537770887e+02
-2.624832656825461186e+02
-2.611225655097657068e+02
-2.603992053587745659e+02
-2.607248074643594009e+02
-2.622938299563218152e+02
-2.651360765707175915e+02
-2.691273796817055768e+02
-2.739386187358788902e+02
-2.789894945589090867e+02
-2.835033074986637871e+02
-2.867050585856806606e+02
-2.881076099161574575e+02
-2.877581691460860611e+02
-2.863198692440433888e+02
-2.849313895184888565e+02
-2.848639081401422573e+02
-2.870406251223838581e+02
-2.915123004011302896e+02
-2.970133694399766000e+02
-3.007479404830493195e+02
-2.985471549412915806e+02
-2.854715404098980116e+02
-2.567895644148212000e+02
-2.090908890119723651e+02
-1.411988118746260454e+02
-5.460642341776295439e+01
4.666566883782719799e+01
1.567124233219888083e+02
2.686984879895460381e+02
3.758984020003778710e+02
4.726139149217088971e+02
5.548075750300505433e+02
6.203715219529065052e+02
6.690507785551666302e+02
7.021208959108328145e+02
7.219430852618173731e+02
7.314898384966425056e+02
7.338887249001322743e+02
7.320095220541334129e+02
7.281304976848024353e+02
7.237367646850707388e+02
7.194887379808934611e+02
7.153491869710389892e+02
7.108109116427008303e+02
7.051575320200073520e+02
6.977143075605272315e+02
6.880667347455042773e+02
6.762100053371043487e+02
6.625668712102594782e+02
6.478332667308428654e+02
6.326870612450261433e+02
6.174673786888633913e+02
6.019502034005041651e+02
5.853085043091924717e+02
5.662747311091040956e+02
5.434527820860723750e+02
5.156909986474367997e+02
4.824326070722330542e+02
4.439710727598925359e+02
4.015379324948308977e+02
3.571721920007831841e+02
3.133880708825641932e+02
2.727372137517537567e+02
2.373946069734994921e+02
2.088640282921397215e+02
1.878287563423083384e+02
1.741188090069484247e+02
1.667605487625292824e+02
1.641044651967717414e+02
1.640506186997650104e+02
1.643815038103208792e+02
1.631659363218493866e+02
1.591323577037722146e+02
1.518752803001875691e+02
1.418054131352255638e+02
1.298656748622583734e+02
1.171321440522294495e+02
1.044434617645282088e+02
9.216664261410517156e+01
8.015428526579812285e+01
6.789305131698918672e+01
5.477820559334470829e+01
4.039325593295373551e+01
2.467558959736703628e+01
7.919724987501467695e+00
-9.345858393333173808e+00
-2.653316444099323235e+01
-4.315270151991907710e+01
-5.891034936676439315e+01
-7.372315873333548097e+01
-8.766175622834697378e+01
-1.008503452639208149e+02
-1.133658477253356409e+02
-1.251754806879586113e+02
-1.361381404628713199e+02
-1.460691970837581266e+02
-1.548385178734811802e+02
-1.624554107235400693e+02
-1.691024552591288739e+02
-1.751049293675237095e+02
-1.808503176303569262e+02
-1.866928278354942563e+02
-1.928786478037965253e+02
-1.995066694396979869e+02
-2.065149034841022058e+02
-2.136763780215795805e+02
-2.206053941042117685e+02
-2.267980347816754829e+02
-2.317300544221301379e+02
-2.350026814100935439e+02
-2.364898214033622708e+02
-2.364286401903378874e+02
-2.354130695202226207e+02
-2.342825685462665888e+02
-2.339333458150306910e+02
-2.351038379160632985e+02
-2.381887144813245527e+02
-2.431227330157016695e+02
-2.493719717151070085e+02
-2.560733814831921222e+02
-2.623294461521538778e+02
-2.675730734860766233e+02
-2.718323019941456664e+02
-2.757322425199848794e+02
-2.801797270109628357e+02
-2.858130624462465335e+02
-2.923974870303108560e+02
-2.983766466081345357e+02
-3.007479404830493195e+02
-2.953396797047027462e+02
-2.774722879285178010e+02
-2.429007049517708765e+02
-1.888426525281446402e+02
-1.148247139214922754e+02
-2.307865457464336600e+01
8.166529350744087878e+01
1.929481643274754106e+02
3.036920025644557199e+02
4.073362791183216132e+02
4.987217407280228940e+02
5.745715031510856079e+02
6.335681022133014721e+02
6.761212885545133986e+02
7.039492326141362355e+02
7.195897310831246614e+02
7.259400774818310538e+02
7.258871697037016020e+02
7.220378894695122654e+02
7.165260024791922433e+02
7.108794447777149799e+02
7.059642463168605673e+02
7.020350718955262437e+02
6.988926208233147008e+02
6.960977076601262752e+02
6.931665378399720794e+02
6.896889234722707442e+02
6.853493635839234912e+02
6.798663255271576418e+02
6.728933210277316448e+02
6.639443226230673645e+02
6.524018106376006472e+02
6.376263310426847966e+02
6.191239331814765592e+02
5.966828510502655263e+02
5.704063401708475567e+02
5.406432477901811353e+02
5.078903737637474478e+02
4.727461695202788405e+02
4.359349684826506746e+02
3.983555523470774915e+02
3.610912944522486328e+02
3.253528626138397044e+02
2.923667196043580816e+02
2.632346152543557309e+02
2.387776227847040218e+02
2.193816675917782391e+02
2.048909105699235340e+02
1.946137336678859810e+02
1.874776733879790811e+02
1.823043309936340677e+02
1.781127147637092492e+02
1.743336186280662332e+02
1.708450721056451869e+02
1.678135764010384321e+02
1.654135182964092223e+02
1.635524526076122811e+02
1.617274432833731908e+02
1.590825900528432726e+02
1.546527645359354324e+02
1.476940783443275791e+02
1.379575863346580604e+02
1.257898722360117176e+02
1.120295391831670884e+02
9.775839250762660981e+01
8.401284342205505595e+01
7.155508763200893441e+01
6.076186227094690651e+01
5.163601091838715007e+01
4.390513217006609636e+01
3.715175045177436175e+01
3.091995284860533388e+01
2.476609171347580940e+01
1.826379393439587062e+01
1.101256565625579498e+01
2.700107406175966673e+00
-6.777771963260960320e+00
-1.719558488411531982e+01
-2.795871802213105184e+01
-3.820578101137370197e+01
-4.704608960116536309e+01
-5.384822122389222443e+01
-5.845410966715860468e+01
-6.122014369458391059e+01
-6.286711517514926584e+01
-6.420662293042107649e+01
-6.586024322481802074e+01
-6.807961851414543730e+01
-7.071910258988187081e+01
-7.334393147952265224e+01
-7.541409365503446338e+01
-7.647724379879512924e+01
-7.631774985085188234e+01
-7.502597432190641769e+01
-7.297007482750566965e+01
-7.068107599908141481e+01
-6.869639747400989904e+01
-6.742391450855090795e+01
-6.707473379602974717e+01
-6.767671662760116646e+01
-6.913776801087601598e+01
-7.130026139446643185e+01
-7.393811354719414908e+01
-7.669251359703083892e+01
-7.899659942827743464e+01
-8.008172381410696516e+01
-7.916066557019215111e+01
-7.581277381977427865e+01
-7.046337427841150713e+01
-6.473158926251461764e+01
-6.140320716493391728e+01
-6.390068167535905275e+01
-7.533010028995457219e+01
-9.738861075519717758e+01
-1.295214302734214584e+02
-1.686863008697238513e+02
-2.099106186292270877e+02
-2.475304887746526674e+02
-2.766901674876355059e+02
-2.945443434367438726e+02
-3.007479404830493195e+02
-2.971471567968818022e+02
-2.869050122090463901e+02
-2.734539695968078945e+02
-2.596386652497039336e+02
-2.472480970240662828e+02
-2.369557201980493630e+02
-2.285646665341655819e+02
-2.214047289529106592e+02
-2.147276950551797370e+02
-2.079867111720533899e+02
-2.009529986200680298e+02
-1.936924029443125619e+02
-1.864652630793430035e+02
-1.796142662067824745e+02
-1.734758053103910811e+02
-1.683154628049040582e+02
-1.642751763314040261e+02
-1.613354092402162223e+02
-1.593140323158065996e+02
-1.579138944406779217e+02
-1.567998638730448704e+02
-1.556700357385043390e+02
-1.543009737750473107e+02
-1.525697861183013799e+02
-1.504609241294067203e+02
-1.480576334642417748e+02
-1.455149897497889526e+02
-1.430174927875841604e+02
-1.407318008396133848e+02
-1.387681312766689814e+02
-1.371611114643880569e+02
-1.358750741517429788e+02
-1.348315664364170061e+02
-1.339481239210242904e+02
-1.331711525967144496e+02
-1.324895477699284072e+02
-1.319303610352395708e+02
-1.315516569834627489e+02
-1.314454696962498303e+02
-1.317432186593226788e+02
-1.325919755911064044e+02
-1.340641816920909264e+02
-1.359886642412873528e+02
-1.377376974250889248e+02
-1.380466335046777999e+02
-1.349590125350803760e+02
-1.259757716232158771e+02
-1.084395997672386329e+02
-8.010605306504459122e+01
-3.976431917251158410e+01
1.228312162020622011e+01
7.405183697556303457e+01
1.420916763310811461e+02
2.120354896520887849e+02
2.793289414121478558e+02
3.399513887321185734e+02
3.909618228992820264e+02
4.307731054370319157e+02
4.591418562954173126e+02
4.769310295471227619e+02
4.857441100836372243e+02
4.875406475444975740e+02
4.843194330906746359e+02
4.779053108207494915e+02
4.698256197787709993e+02
4.612438122096450570e+02
4.529348820871326780e+02
4.453076530497477847e+02
4.384714456038486219e+02
4.323205555234770827e+02
4.266057210020609318e+02
4.209853184362875140e+02
4.150723083620317198e+02
4.084923859391636256e+02
4.009481064187716015e+02
3.922622000481911186e+02
3.823693370755366914e+02
3.712467589540896142e+02
3.588109651225415178e+02
3.448362022105232541e+02
3.289476130231579987e+02
3.107064322983291618e+02
2.897613898699977995e+02
2.660147052386215591e+02
2.397478102140120768e+02
2.116656577561190318e+02
1.828438968844710075e+02
1.545904462790689706e+02
1.282508898971060489e+02
1.049957222234041154e+02
8.563269557170340818e+01
7.048606812705966718e+01
5.936904031071876631e+01
5.164982620680971337e+01
4.638891315461712139e+01
4.251451538274618258e+01
3.900428428158294025e+01
3.504649669855717775e+01
3.015496355871903233e+01
2.420873910027407661e+01
1.739501006913869574e+01
1.006575405790377253e+01
2.563286412186965180e+00
-4.909335000348264089e+00
-1.232213069552960150e+01
-1.976100225808923483e+01
-2.733183514783046064e+01
-3.508810727226720871e+01
-4.301747023060379860e+01
-5.108276200197303751e+01
-5.928180550126258197e+01
-6.768086840097070933e+01
-7.639324020104265855e+01
-8.550799466043429220e+01
-9.500486382872590241e+01
-1.047022556162065854e+02
-1.142712432826008069e+02
-1.233165733133681954e+02
-1.314922409202148970e+02
-1.385992637050591441e+02
-1.446197362911027540e+02
-1.496777976124388090e+02
-1.539642277202745504e+02
-1.576808673993793946e+02
-1.610380834564543022e+02
-1.642933222892173717e+02
-1.677846272652730022e+02
-1.719084715685391132e+02
-1.770180160619980825e+02
-1.832689189796217590e+02
-1.904916281237117346e+02
-1.981794111540895642e+02
-2.056263977004220465e+02
-2.121615972496265670e+02
-2.173685082460334570e+02
-2.211937014802688850e+02
-2.239125344020162629e+02
-2.259860729104236441e+02
-2.278771584895946205e+02
-2.298944907737685242e+02
-2.321136176021020958e+02
-2.343920398578541722e+02
-2.364611030532850293e+02
-2.380524048214074355e+02
-2.390111803845451561e+02
-2.393619014653884562e+02
-2.393112212543622377e+02
-2.391928182829757361e+02
-2.393757399976206841e+02
-2.401680005171006087e+02
-2.417448439242985501e+02
-2.441183557340717698e+02
-2.471491623532353969e+02
-2.505881581650143062e+02
-2.541336015064252365e+02
-2.574977568785675999e+02
-2.604843578994234008e+02
-2.630700224152554370e+02
-2.654634977046321751e+02
-2.681018558186623864e+02
-2.715464998931130367e+02
-2.762723630244250330e+02
-2.823956367702305670e+02
-2.894309902850170602e+02
-2.961727205105250960e+02
-3.007479404830493195e+02
-3.008287359114615924e+02
-2.939559633093271032e+02
-2.779248855870805528e+02
-2.511775955225802761e+02
-2.131404466816802312e+02
-1.644363418263788787e+02
-1.069081417031668337e+02
-4.342360208139015043e+01
2.250631119150877169e+01
8.720253078356002163e+01
1.472701300251152645e+02
1.999384649917715819e+02
2.432557604882143210e+02
2.761574758905013596e+02
2.984528045963619434e+02
3.107628901149466856e+02
3.144140758323497948e+02
3.112686722297503366e+02
3.034818721939514035e+02
2.932027284725755294e+02
2.822711788051368558e+02
2.719811975384097309e+02
2.629696580319406394e+02
2.552542963066677544e+02
2.484001788447145316e+02
2.417608857641007774e+02
2.347239046861930944e+02
2.268891754512199270e+02
2.181304024606799601e+02
2.085322832161001543e+02
1.982465518306176477e+02
1.873381141374069045e+02
1.756855007376555591e+02
1.629676328807022685e+02
1.487312450181913732e+02
1.325043914876698068e+02
1.139122647278868499e+02
9.276767908484924874e+01
6.913501799156898642e+01
4.337514067427864006e+01
1.616292708536960276e+01
-1.154791762624384432e+01
-3.863373360217602226e+01
-6.397724369473142048e+01
-8.666856917850327591e+01
-1.061631847406324312e+02
-1.223385557935732066e+02
-1.354370480988484644e+02
-1.459344671310564081e+02
-1.543959677833473165e+02
-1.613671117080664885e+02
-1.673167310705129012e+02
-1.726216414029272812e+02
-1.775723324249655093e+02
-1.823836461828405504e+02
-1.872062442978214847e+02
-1.921416636831463052e+02
-1.972600295755608215e+02
-2.026109242003864210e+02
-2.082188364173840966e+02
-2.140697946254663293e+02
-2.201088795241413152e+02
-2.262609015975461375e+02
-2.324637698087431659e+02
-2.386895714652196716e+02
-2.449368361208958618e+02
-2.512006785031915967e+02
-2.574448354510418540e+02
-2.635965568153066556e+02
-2.695655921446844445e+02
-2.752706658244700293e+02
-2.806548819081203874e+02
-2.856811110379301795e+02
-2.903083075472893597e+02
-2.944589176990373289e+02
-2.979981721277947031e+02
-3.007479404830493195e+02
-3.025403598692828382e+02
-3.032893485180826474e+02
-3.030431542685559521e+02
-3.019895652447590351e+02
-3.004108052183613040e+02
-2.986085637222109881e+02
-2.968250410499962300e+02
-2.951790322582746739e+02
-2.936361205600562130e+02
-2.920371870132568688e+02
-2.901927537090452915e+02
-2.880040945309003746e+02
-2.855343516865743823e+02
